REVNUM:,NSMA WG16.99.050
REVDAT:,20050520
ANTMAN:,COMPROD
MODNUM:,774-70-05
DESCR1:,CP770 Series UHF Exposed Dipoles
DESCR2:,Vertical polarization
DESCR3:,Max Gain @ 1 deg Elev Angle
DESCR4:,Quasi Omni
DTDATA:,20050101
LOWFRQ:,406.0
HGHFRQ:,512.0
GUNITS:,DBD/DBR
MDGAIN:,8.20
AZWIDT:,91.6
ELWIDT:,16.8
CONTYP:,N
ATVSWR:,1.5
ELTILT:,0.0
MAXPOW:,500
ANTLEN:,0 dimension L
ANTWID:,0 dimension W
ANTDEP:,0 dimension H
ANTWGT:,0 weight in kg
PATTYP:,TYPICAL
NOFREQ:,1
PATFRE:,460.0
NUMCUT:,2
PATCUT:,AZ
POLARI:,V/V
NUPOIN:,360
FSTLST:,-180,179
-180.000, -7.340
-179.000, -7.340
-178.000, -7.340
-177.000, -7.340
-176.000, -7.330
-175.000, -7.330
-174.000, -7.330
-173.000, -7.320
-172.000, -7.310
-171.000, -7.310
-170.000, -7.300
-169.000, -7.290
-168.000, -7.280
-167.000, -7.260
-166.000, -7.250
-165.000, -7.230
-164.000, -7.210
-163.000, -7.190
-162.000, -7.160
-161.000, -7.130
-160.000, -7.100
-159.000, -7.060
-158.000, -7.020
-157.000, -6.980
-156.000, -6.930
-155.000, -6.880
-154.000, -6.820
-153.000, -6.760
-152.000, -6.700
-151.000, -6.630
-150.000, -6.550
-149.000, -6.470
-148.000, -6.380
-147.000, -6.290
-146.000, -6.200
-145.000, -6.090
-144.000, -5.990
-143.000, -5.880
-142.000, -5.760
-141.000, -5.650
-140.000, -5.520
-139.000, -5.400
-138.000, -5.270
-137.000, -5.130
-136.000, -5.000
-135.000, -4.860
-134.000, -4.720
-133.000, -4.580
-132.000, -4.430
-131.000, -4.290
-130.000, -4.140
-129.000, -3.990
-128.000, -3.840
-127.000, -3.700
-126.000, -3.550
-125.000, -3.400
-124.000, -3.260
-123.000, -3.110
-122.000, -2.970
-121.000, -2.830
-120.000, -2.690
-119.000, -2.550
-118.000, -2.420
-117.000, -2.280
-116.000, -2.150
-115.000, -2.030
-114.000, -1.900
-113.000, -1.780
-112.000, -1.660
-111.000, -1.550
-110.000, -1.440
-109.000, -1.330
-108.000, -1.230
-107.000, -1.130
-106.000, -1.030
-105.000, -0.940
-104.000, -0.860
-103.000, -0.770
-102.000, -0.690
-101.000, -0.620
-100.000, -0.550
 -99.000, -0.480
 -98.000, -0.420
 -97.000, -0.360
 -96.000, -0.310
 -95.000, -0.260
 -94.000, -0.210
 -93.000, -0.170
 -92.000, -0.140
 -91.000, -0.100
 -90.000, -0.080
 -89.000, -0.050
 -88.000, -0.040
 -87.000, -0.020
 -86.000, -0.010
 -85.000, -0.010
 -84.000,  0.000
 -83.000, -0.010
 -82.000, -0.010
 -81.000, -0.020
 -80.000, -0.040
 -79.000, -0.060
 -78.000, -0.080
 -77.000, -0.110
 -76.000, -0.140
 -75.000, -0.170
 -74.000, -0.210
 -73.000, -0.250
 -72.000, -0.290
 -71.000, -0.340
 -70.000, -0.390
 -69.000, -0.440
 -68.000, -0.490
 -67.000, -0.550
 -66.000, -0.610
 -65.000, -0.670
 -64.000, -0.740
 -63.000, -0.810
 -62.000, -0.880
 -61.000, -0.950
 -60.000, -1.020
 -59.000, -1.090
 -58.000, -1.170
 -57.000, -1.240
 -56.000, -1.320
 -55.000, -1.400
 -54.000, -1.470
 -53.000, -1.550
 -52.000, -1.630
 -51.000, -1.710
 -50.000, -1.790
 -49.000, -1.860
 -48.000, -1.940
 -47.000, -2.010
 -46.000, -2.090
 -45.000, -2.160
 -44.000, -2.230
 -43.000, -2.300
 -42.000, -2.370
 -41.000, -2.440
 -40.000, -2.500
 -39.000, -2.570
 -38.000, -2.630
 -37.000, -2.690
 -36.000, -2.740
 -35.000, -2.800
 -34.000, -2.850
 -33.000, -2.900
 -32.000, -2.940
 -31.000, -2.990
 -30.000, -3.030
 -29.000, -3.070
 -28.000, -3.110
 -27.000, -3.140
 -26.000, -3.170
 -25.000, -3.200
 -24.000, -3.230
 -23.000, -3.260
 -22.000, -3.280
 -21.000, -3.300
 -20.000, -3.320
 -19.000, -3.340
 -18.000, -3.360
 -17.000, -3.380
 -16.000, -3.390
 -15.000, -3.400
 -14.000, -3.410
 -13.000, -3.420
 -12.000, -3.430
 -11.000, -3.440
 -10.000, -3.450
  -9.000, -3.450
  -8.000, -3.460
  -7.000, -3.460
  -6.000, -3.470
  -5.000, -3.470
  -4.000, -3.470
  -3.000, -3.480
  -2.000, -3.480
  -1.000, -3.480
   0.000, -3.480
   1.000, -3.480
   2.000, -3.480
   3.000, -3.480
   4.000, -3.470
   5.000, -3.470
   6.000, -3.470
   7.000, -3.460
   8.000, -3.460
   9.000, -3.450
  10.000, -3.450
  11.000, -3.440
  12.000, -3.430
  13.000, -3.420
  14.000, -3.410
  15.000, -3.400
  16.000, -3.390
  17.000, -3.380
  18.000, -3.360
  19.000, -3.340
  20.000, -3.320
  21.000, -3.300
  22.000, -3.280
  23.000, -3.260
  24.000, -3.230
  25.000, -3.200
  26.000, -3.170
  27.000, -3.140
  28.000, -3.110
  29.000, -3.070
  30.000, -3.030
  31.000, -2.990
  32.000, -2.940
  33.000, -2.900
  34.000, -2.850
  35.000, -2.800
  36.000, -2.740
  37.000, -2.690
  38.000, -2.630
  39.000, -2.570
  40.000, -2.500
  41.000, -2.440
  42.000, -2.370
  43.000, -2.300
  44.000, -2.230
  45.000, -2.160
  46.000, -2.090
  47.000, -2.010
  48.000, -1.940
  49.000, -1.860
  50.000, -1.790
  51.000, -1.710
  52.000, -1.630
  53.000, -1.550
  54.000, -1.470
  55.000, -1.400
  56.000, -1.320
  57.000, -1.240
  58.000, -1.170
  59.000, -1.090
  60.000, -1.020
  61.000, -0.950
  62.000, -0.880
  63.000, -0.810
  64.000, -0.740
  65.000, -0.670
  66.000, -0.610
  67.000, -0.550
  68.000, -0.490
  69.000, -0.440
  70.000, -0.390
  71.000, -0.340
  72.000, -0.290
  73.000, -0.250
  74.000, -0.210
  75.000, -0.170
  76.000, -0.140
  77.000, -0.110
  78.000, -0.080
  79.000, -0.060
  80.000, -0.040
  81.000, -0.020
  82.000, -0.010
  83.000, -0.010
  84.000,  0.000
  85.000, -0.010
  86.000, -0.010
  87.000, -0.020
  88.000, -0.040
  89.000, -0.050
  90.000, -0.080
  91.000, -0.100
  92.000, -0.140
  93.000, -0.170
  94.000, -0.210
  95.000, -0.260
  96.000, -0.310
  97.000, -0.360
  98.000, -0.420
  99.000, -0.480
 100.000, -0.550
 101.000, -0.620
 102.000, -0.690
 103.000, -0.770
 104.000, -0.860
 105.000, -0.940
 106.000, -1.030
 107.000, -1.130
 108.000, -1.230
 109.000, -1.330
 110.000, -1.440
 111.000, -1.550
 112.000, -1.660
 113.000, -1.780
 114.000, -1.900
 115.000, -2.030
 116.000, -2.150
 117.000, -2.280
 118.000, -2.420
 119.000, -2.550
 120.000, -2.690
 121.000, -2.830
 122.000, -2.970
 123.000, -3.110
 124.000, -3.260
 125.000, -3.400
 126.000, -3.550
 127.000, -3.700
 128.000, -3.840
 129.000, -3.990
 130.000, -4.140
 131.000, -4.290
 132.000, -4.430
 133.000, -4.580
 134.000, -4.720
 135.000, -4.860
 136.000, -5.000
 137.000, -5.130
 138.000, -5.270
 139.000, -5.400
 140.000, -5.520
 141.000, -5.650
 142.000, -5.760
 143.000, -5.880
 144.000, -5.990
 145.000, -6.090
 146.000, -6.200
 147.000, -6.290
 148.000, -6.380
 149.000, -6.470
 150.000, -6.550
 151.000, -6.630
 152.000, -6.700
 153.000, -6.760
 154.000, -6.820
 155.000, -6.880
 156.000, -6.930
 157.000, -6.980
 158.000, -7.020
 159.000, -7.060
 160.000, -7.100
 161.000, -7.130
 162.000, -7.160
 163.000, -7.190
 164.000, -7.210
 165.000, -7.230
 166.000, -7.250
 167.000, -7.260
 168.000, -7.280
 169.000, -7.290
 170.000, -7.300
 171.000, -7.310
 172.000, -7.310
 173.000, -7.320
 174.000, -7.330
 175.000, -7.330
 176.000, -7.330
 177.000, -7.340
 178.000, -7.340
 179.000, -7.340
PATCUT:,EL
POLARI:,V/V
NUPOIN:,360
FSTLST:,-180,179
-180.000, -3.860
-179.000, -3.990
-178.000, -4.210
-177.000, -4.520
-176.000, -4.920
-175.000, -5.410
-174.000, -5.990
-173.000, -6.660
-172.000, -7.430
-171.000, -8.310
-170.000, -9.310
-169.000,-10.430
-168.000,-11.700
-167.000,-13.150
-166.000,-14.800
-165.000,-16.720
-164.000,-18.950
-163.000,-21.530
-162.000,-24.270
-161.000,-26.240
-160.000,-26.110
-159.000,-24.560
-158.000,-22.930
-157.000,-21.630
-156.000,-20.690
-155.000,-20.050
-154.000,-19.670
-153.000,-19.520
-152.000,-19.550
-151.000,-19.750
-150.000,-20.110
-149.000,-20.620
-148.000,-21.280
-147.000,-22.080
-146.000,-23.040
-145.000,-24.160
-144.000,-25.460
-143.000,-26.970
-142.000,-28.740
-141.000,-30.790
-140.000,-33.110
-139.000,-35.450
-138.000,-36.830
-137.000,-36.260
-136.000,-34.540
-135.000,-32.730
-134.000,-31.170
-133.000,-29.900
-132.000,-28.870
-131.000,-28.040
-130.000,-27.370
-129.000,-26.840
-128.000,-26.420
-127.000,-26.110
-126.000,-25.880
-125.000,-25.730
-124.000,-25.660
-123.000,-25.650
-122.000,-25.700
-121.000,-25.810
-120.000,-25.970
-119.000,-26.180
-118.000,-26.430
-117.000,-26.720
-116.000,-27.040
-115.000,-27.390
-114.000,-27.750
-113.000,-28.110
-112.000,-28.450
-111.000,-28.780
-110.000,-29.060
-109.000,-29.290
-108.000,-29.470
-107.000,-29.590
-106.000,-29.650
-105.000,-29.660
-104.000,-29.640
-103.000,-29.590
-102.000,-29.530
-101.000,-29.470
-100.000,-29.410
 -99.000,-29.360
 -98.000,-29.330
 -97.000,-29.310
 -96.000,-29.310
 -95.000,-29.320
 -94.000,-29.340
 -93.000,-29.370
 -92.000,-29.390
 -91.000,-29.420
 -90.000,-29.450
 -89.000,-29.480
 -88.000,-29.510
 -87.000,-29.550
 -86.000,-29.590
 -85.000,-29.660
 -84.000,-29.740
 -83.000,-29.860
 -82.000,-29.990
 -81.000,-30.120
 -80.000,-30.220
 -79.000,-30.220
 -78.000,-30.050
 -77.000,-29.600
 -76.000,-28.850
 -75.000,-27.810
 -74.000,-26.560
 -73.000,-25.200
 -72.000,-23.810
 -71.000,-22.450
 -70.000,-21.150
 -69.000,-19.910
 -68.000,-18.760
 -67.000,-17.700
 -66.000,-16.720
 -65.000,-15.830
 -64.000,-15.020
 -63.000,-14.310
 -62.000,-13.670
 -61.000,-13.130
 -60.000,-12.670
 -59.000,-12.300
 -58.000,-12.030
 -57.000,-11.840
 -56.000,-11.760
 -55.000,-11.780
 -54.000,-11.920
 -53.000,-12.170
 -52.000,-12.560
 -51.000,-13.090
 -50.000,-13.780
 -49.000,-14.670
 -48.000,-15.790
 -47.000,-17.200
 -46.000,-19.000
 -45.000,-21.330
 -44.000,-24.410
 -43.000,-28.230
 -42.000,-29.740
 -41.000,-26.450
 -40.000,-22.990
 -39.000,-20.360
 -38.000,-18.350
 -37.000,-16.740
 -36.000,-15.430
 -35.000,-14.340
 -34.000,-13.440
 -33.000,-12.690
 -32.000,-12.080
 -31.000,-11.620
 -30.000,-11.300
 -29.000,-11.140
 -28.000,-11.150
 -27.000,-11.350
 -26.000,-11.770
 -25.000,-12.460
 -24.000,-13.480
 -23.000,-14.960
 -22.000,-17.120
 -21.000,-20.500
 -20.000,-26.730
 -19.000,-32.840
 -18.000,-22.690
 -17.000,-17.530
 -16.000,-14.200
 -15.000,-11.760
 -14.000, -9.830
 -13.000, -8.250
 -12.000, -6.910
 -11.000, -5.760
 -10.000, -4.760
  -9.000, -3.870
  -8.000, -3.090
  -7.000, -2.400
  -6.000, -1.800
  -5.000, -1.290
  -4.000, -0.860
  -3.000, -0.520
  -2.000, -0.260
  -1.000, -0.090
   0.000,  0.000
   1.000,  0.000
   2.000, -0.080
   3.000, -0.250
   4.000, -0.500
   5.000, -0.840
   6.000, -1.260
   7.000, -1.780
   8.000, -2.380
   9.000, -3.080
  10.000, -3.890
  11.000, -4.820
  12.000, -5.890
  13.000, -7.140
  14.000, -8.600
  15.000,-10.370
  16.000,-12.560
  17.000,-15.430
  18.000,-19.580
  19.000,-27.050
  20.000,-33.030
  21.000,-22.740
  22.000,-18.260
  23.000,-15.580
  24.000,-13.780
  25.000,-12.530
  26.000,-11.660
  27.000,-11.090
  28.000,-10.750
  29.000,-10.630
  30.000,-10.700
  31.000,-10.950
  32.000,-11.380
  33.000,-12.000
  34.000,-12.810
  35.000,-13.840
  36.000,-15.110
  37.000,-16.700
  38.000,-18.670
  39.000,-21.160
  40.000,-24.310
  41.000,-27.610
  42.000,-28.040
  43.000,-25.270
  44.000,-22.480
  45.000,-20.330
  46.000,-18.700
  47.000,-17.440
  48.000,-16.450
  49.000,-15.680
  50.000,-15.090
  51.000,-14.630
  52.000,-14.290
  53.000,-14.050
  54.000,-13.910
  55.000,-13.840
  56.000,-13.860
  57.000,-13.940
  58.000,-14.080
  59.000,-14.290
  60.000,-14.560
  61.000,-14.890
  62.000,-15.270
  63.000,-15.710
  64.000,-16.210
  65.000,-16.770
  66.000,-17.380
  67.000,-18.050
  68.000,-18.770
  69.000,-19.550
  70.000,-20.390
  71.000,-21.290
  72.000,-22.240
  73.000,-23.240
  74.000,-24.290
  75.000,-25.360
  76.000,-26.440
  77.000,-27.500
  78.000,-28.500
  79.000,-29.390
  80.000,-30.140
  81.000,-30.720
  82.000,-31.140
  83.000,-31.410
  84.000,-31.570
  85.000,-31.680
  86.000,-31.760
  87.000,-31.840
  88.000,-31.940
  89.000,-32.070
  90.000,-32.230
  91.000,-32.400
  92.000,-32.590
  93.000,-32.770
  94.000,-32.940
  95.000,-33.090
  96.000,-33.200
  97.000,-33.270
  98.000,-33.300
  99.000,-33.290
 100.000,-33.250
 101.000,-33.170
 102.000,-33.070
 103.000,-32.950
 104.000,-32.780
 105.000,-32.550
 106.000,-32.220
 107.000,-31.770
 108.000,-31.170
 109.000,-30.430
 110.000,-29.570
 111.000,-28.610
 112.000,-27.600
 113.000,-26.580
 114.000,-25.570
 115.000,-24.600
 116.000,-23.690
 117.000,-22.850
 118.000,-22.080
 119.000,-21.390
 120.000,-20.780
 121.000,-20.260
 122.000,-19.830
 123.000,-19.490
 124.000,-19.240
 125.000,-19.090
 126.000,-19.040
 127.000,-19.090
 128.000,-19.250
 129.000,-19.530
 130.000,-19.930
 131.000,-20.480
 132.000,-21.180
 133.000,-22.070
 134.000,-23.190
 135.000,-24.600
 136.000,-26.380
 137.000,-28.620
 138.000,-31.180
 139.000,-32.630
 140.000,-30.980
 141.000,-27.980
 142.000,-25.240
 143.000,-22.970
 144.000,-21.110
 145.000,-19.570
 146.000,-18.280
 147.000,-17.220
 148.000,-16.360
 149.000,-15.680
 150.000,-15.190
 151.000,-14.880
 152.000,-14.750
 153.000,-14.830
 154.000,-15.120
 155.000,-15.670
 156.000,-16.530
 157.000,-17.790
 158.000,-19.600
 159.000,-22.260
 160.000,-26.220
 161.000,-29.680
 162.000,-25.610
 163.000,-20.950
 164.000,-17.590
 165.000,-15.050
 166.000,-13.030
 167.000,-11.380
 168.000, -9.990
 169.000, -8.800
 170.000, -7.780
 171.000, -6.910
 172.000, -6.160
 173.000, -5.530
 174.000, -5.000
 175.000, -4.570
 176.000, -4.240
 177.000, -4.010
 178.000, -3.870
 179.000, -3.820
ENDFIL:,EOF
